nm,Abs,
600.00,  0.043,
599.00,  0.045,
598.00,  0.047,
597.00,  0.048,
596.00,  0.050,
595.00,  0.051,
594.00,  0.053,
593.00,  0.055,
592.00,  0.057,
591.00,  0.059,
590.00,  0.061,
589.00,  0.063,
588.00,  0.065,
587.00,  0.068,
586.00,  0.070,
585.00,  0.073,
584.00,  0.075,
583.00,  0.077,
582.00,  0.080,
581.00,  0.082,
580.00,  0.086,
579.00,  0.089,
578.00,  0.091,
577.00,  0.094,
576.00,  0.097,
575.00,  0.101,
574.00,  0.103,
573.00,  0.107,
572.00,  0.110,
571.00,  0.113,
570.00,  0.116,
569.00,  0.119,
568.00,  0.123,
567.00,  0.127,
566.00,  0.130,
565.00,  0.134,
564.00,  0.137,
563.00,  0.141,
562.00,  0.144,
561.00,  0.148,
560.00,  0.151,
559.00,  0.155,
558.00,  0.159,
557.00,  0.163,
556.00,  0.166,
555.00,  0.170,
554.00,  0.173,
553.00,  0.177,
552.00,  0.180,
551.00,  0.184,
550.00,  0.187,
549.00,  0.191,
548.00,  0.194,
547.00,  0.197,
546.00,  0.201,
545.00,  0.204,
544.00,  0.207,
543.00,  0.210,
542.00,  0.213,
541.00,  0.215,
540.00,  0.218,
539.00,  0.220,
538.00,  0.223,
537.00,  0.226,
536.00,  0.228,
535.00,  0.230,
534.00,  0.232,
533.00,  0.234,
532.00,  0.235,
531.00,  0.237,
530.00,  0.238,
529.00,  0.239,
528.00,  0.240,
527.00,  0.241,
526.00,  0.241,
525.00,  0.242,
524.00,  0.242,
523.00,  0.242,
522.00,  0.242,
521.00,  0.242,
520.00,  0.241,
519.00,  0.241,
518.00,  0.240,
517.00,  0.239,
516.00,  0.238,
515.00,  0.236,
514.00,  0.235,
513.00,  0.234,
512.00,  0.231,
511.00,  0.229,
510.00,  0.228,
509.00,  0.225,
508.00,  0.223,
507.00,  0.220,
506.00,  0.217,
505.00,  0.214,
504.00,  0.211,
503.00,  0.208,
502.00,  0.205,
501.00,  0.202,
500.00,  0.198,
499.00,  0.195,
498.00,  0.191,
497.00,  0.187,
496.00,  0.183,
495.00,  0.179,
494.00,  0.175,
493.00,  0.172,
492.00,  0.168,
491.00,  0.164,
490.00,  0.160,
489.00,  0.156,
488.00,  0.152,
487.00,  0.148,
486.00,  0.143,
485.00,  0.139,
484.00,  0.135,
483.00,  0.132,
482.00,  0.127,
481.00,  0.124,
480.00,  0.120,
479.00,  0.116,
478.00,  0.112,
477.00,  0.108,
476.00,  0.105,
475.00,  0.100,
474.00,  0.097,
473.00,  0.094,
472.00,  0.090,
471.00,  0.087,
470.00,  0.083,
469.00,  0.080,
468.00,  0.077,
467.00,  0.074,
466.00,  0.071,
465.00,  0.068,
464.00,  0.065,
463.00,  0.062,
462.00,  0.060,
461.00,  0.057,
460.00,  0.055,
459.00,  0.052,
458.00,  0.050,
457.00,  0.048,
456.00,  0.045,
455.00,  0.043,
454.00,  0.041,
453.00,  0.040,
452.00,  0.038,
451.00,  0.036,
450.00,  0.034,
449.00,  0.033,
448.00,  0.031,
447.00,  0.029,
446.00,  0.028,
445.00,  0.027,
444.00,  0.026,
443.00,  0.024,
442.00,  0.023,
441.00,  0.022,
440.00,  0.021,
439.00,  0.020,
438.00,  0.019,
437.00,  0.018,
436.00,  0.017,
435.00,  0.017,
434.00,  0.016,
433.00,  0.015,
432.00,  0.015,
431.00,  0.014,
430.00,  0.014,
429.00,  0.013,
428.00,  0.013,
427.00,  0.012,
426.00,  0.011,
425.00,  0.011,
424.00,  0.011,
423.00,  0.010,
422.00,  0.010,
421.00,  0.009,
420.00,  0.009,
419.00,  0.009,
418.00,  0.009,
417.00,  0.009,
416.00,  0.008,
415.00,  0.009,
414.00,  0.008,
413.00,  0.008,
412.00,  0.008,
411.00,  0.007,
410.00,  0.008,
409.00,  0.007,
408.00,  0.007,
407.00,  0.007,
406.00,  0.007,
405.00,  0.008,
404.00,  0.007,
403.00,  0.007,
402.00,  0.007,
401.00,  0.007,
400.00,  0.007,
399.00,  0.007,
398.00,  0.007,
397.00,  0.007,
396.00,  0.007,
395.00,  0.007,
394.00,  0.007,
393.00,  0.007,
392.00,  0.007,
391.00,  0.007,
390.00,  0.007,
389.00,  0.007,
388.00,  0.006,
387.00,  0.007,
386.00,  0.007,
385.00,  0.007,
384.00,  0.007,
383.00,  0.006,
382.00,  0.007,
381.00,  0.007,
380.00,  0.007,
379.00,  0.007,
378.00,  0.007,
377.00,  0.007,
376.00,  0.007,
375.00,  0.007,
374.00,  0.008,
373.00,  0.008,
372.00,  0.007,
371.00,  0.007,
370.00,  0.007,
369.00,  0.008,
368.00,  0.007,
367.00,  0.009,
366.00,  0.007,
365.00,  0.007,
364.00,  0.008,
363.00,  0.008,
362.00,  0.008,
361.00,  0.008,
360.00,  0.008,
359.00,  0.008,
358.00,  0.008,
357.00,  0.008,
356.00,  0.008,
355.00,  0.008,
354.00,  0.009,
353.00,  0.009,
352.00,  0.009,
351.00,  0.009,
350.00,  0.009,
349.00,  0.009,
348.00,  0.009,
347.00,  0.010,
346.00,  0.010,
345.00,  0.010,
344.00,  0.010,
343.00,  0.010,
342.00,  0.011,
341.00,  0.011,
340.00,  0.011,
339.00,  0.011,
338.00,  0.011,
337.00,  0.011,
336.00,  0.012,
335.00,  0.013,
334.00,  0.013,
333.00,  0.013,
332.00,  0.013,
331.00,  0.014,
330.00,  0.014,
329.00,  0.014,
328.00,  0.015,
327.00,  0.016,
326.00,  0.016,
325.00,  0.016,
324.00,  0.017,
323.00,  0.017,
322.00,  0.018,
321.00,  0.018,
320.00,  0.019,
319.00,  0.019,
318.00,  0.020,
317.00,  0.020,
316.00,  0.022,
315.00,  0.021,
314.00,  0.022,
313.00,  0.023,
312.00,  0.024,
311.00,  0.024,
310.00,  0.025,
309.00,  0.026,
308.00,  0.026,
307.00,  0.028,
306.00,  0.028,
305.00,  0.029,
304.00,  0.030,
303.00,  0.031,
302.00,  0.032,
301.00,  0.033,
300.00,  0.033,
299.00,  0.035,
298.00,  0.036,
297.00,  0.037,
296.00,  0.038,
295.00,  0.039,
294.00,  0.040,
293.00,  0.042,
292.00,  0.043,
291.00,  0.044,
290.00,  0.046,
289.00,  0.047,
288.00,  0.049,
287.00,  0.050,
286.00,  0.052,
285.00,  0.054,
284.00,  0.055,
283.00,  0.057,
282.00,  0.059,
281.00,  0.062,
280.00,  0.064,
279.00,  0.067,
278.00,  0.070,
277.00,  0.075,
276.00,  0.079,
275.00,  0.084,
274.00,  0.089,
273.00,  0.094,
272.00,  0.101,
271.00,  0.107,
270.00,  0.116,
269.00,  0.125,
268.00,  0.137,
267.00,  0.150,
266.00,  0.163,
265.00,  0.177,
264.00,  0.190,
263.00,  0.205,
262.00,  0.218,
261.00,  0.232,
260.00,  0.262,
259.00,  0.293,
258.00,  0.318,
257.00,  0.344,
256.00,  0.367,
255.00,  0.390,
254.00,  0.430,
253.00,  0.469,
252.00,  0.502,
251.00,  0.534,
250.00,  0.569,
249.00,  0.602,
248.00,  0.649,
247.00,  0.694,
246.00,  0.733,
245.00,  0.769,
244.00,  0.804,
243.00,  0.840,
242.00,  0.881,
241.00,  0.916,
240.00,  0.954,
239.00,  0.990,
238.00,  1.026,
237.00,  1.063,
236.00,  1.095,
235.00,  1.125,
234.00,  1.155,
233.00,  1.185,
232.00,  1.212,
231.00,  1.240,
230.00,  1.271,
229.00,  1.299,
228.00,  1.328,
227.00,  1.356,
226.00,  1.381,
225.00,  1.404,
224.00,  1.425,
223.00,  1.445,
222.00,  1.465,
221.00,  1.485,
220.00,  1.501,
219.00,  1.522,
218.00,  1.538,
217.00,  1.551,
216.00,  1.559,
215.00,  1.555,
214.00,  1.537,
213.00,  1.491,
212.00,  1.386,
211.00,  1.182,
210.00,  0.836,
209.00,  0.508,
208.00,  0.388,
207.00,  0.347,
206.00,  0.289,
205.00,  0.272,
204.00,  0.251,
203.00,  0.257,
202.00,  0.237,
201.00,  0.229,
200.00,  0.236,
