nm,Abs,
600.00,  0.019,
599.00,  0.019,
598.00,  0.019,
597.00,  0.018,
596.00,  0.019,
595.00,  0.019,
594.00,  0.019,
593.00,  0.019,
592.00,  0.019,
591.00,  0.019,
590.00,  0.019,
589.00,  0.019,
588.00,  0.019,
587.00,  0.019,
586.00,  0.019,
585.00,  0.019,
584.00,  0.019,
583.00,  0.019,
582.00,  0.020,
581.00,  0.019,
580.00,  0.019,
579.00,  0.020,
578.00,  0.019,
577.00,  0.020,
576.00,  0.019,
575.00,  0.020,
574.00,  0.019,
573.00,  0.020,
572.00,  0.020,
571.00,  0.020,
570.00,  0.019,
569.00,  0.020,
568.00,  0.020,
567.00,  0.020,
566.00,  0.020,
565.00,  0.020,
564.00,  0.020,
563.00,  0.020,
562.00,  0.020,
561.00,  0.021,
560.00,  0.020,
559.00,  0.020,
558.00,  0.021,
557.00,  0.021,
556.00,  0.020,
555.00,  0.021,
554.00,  0.020,
553.00,  0.021,
552.00,  0.021,
551.00,  0.021,
550.00,  0.021,
549.00,  0.021,
548.00,  0.021,
547.00,  0.021,
546.00,  0.021,
545.00,  0.021,
544.00,  0.021,
543.00,  0.022,
542.00,  0.021,
541.00,  0.022,
540.00,  0.021,
539.00,  0.022,
538.00,  0.022,
537.00,  0.022,
536.00,  0.022,
535.00,  0.022,
534.00,  0.022,
533.00,  0.022,
532.00,  0.022,
531.00,  0.019,
530.00,  0.019,
529.00,  0.019,
528.00,  0.019,
527.00,  0.019,
526.00,  0.019,
525.00,  0.019,
524.00,  0.019,
523.00,  0.019,
522.00,  0.019,
521.00,  0.019,
520.00,  0.019,
519.00,  0.019,
518.00,  0.019,
517.00,  0.019,
516.00,  0.019,
515.00,  0.019,
514.00,  0.019,
513.00,  0.020,
512.00,  0.019,
511.00,  0.020,
510.00,  0.020,
509.00,  0.020,
508.00,  0.020,
507.00,  0.020,
506.00,  0.020,
505.00,  0.020,
504.00,  0.020,
503.00,  0.020,
502.00,  0.020,
501.00,  0.020,
500.00,  0.020,
499.00,  0.020,
498.00,  0.020,
497.00,  0.020,
496.00,  0.021,
495.00,  0.020,
494.00,  0.020,
493.00,  0.020,
492.00,  0.021,
491.00,  0.021,
490.00,  0.021,
489.00,  0.021,
488.00,  0.021,
487.00,  0.021,
486.00,  0.021,
485.00,  0.021,
484.00,  0.021,
483.00,  0.021,
482.00,  0.021,
481.00,  0.021,
480.00,  0.021,
479.00,  0.021,
478.00,  0.021,
477.00,  0.021,
476.00,  0.022,
475.00,  0.022,
474.00,  0.022,
473.00,  0.021,
472.00,  0.021,
471.00,  0.022,
470.00,  0.022,
469.00,  0.021,
468.00,  0.022,
467.00,  0.022,
466.00,  0.022,
465.00,  0.022,
464.00,  0.022,
463.00,  0.022,
462.00,  0.022,
461.00,  0.022,
460.00,  0.022,
459.00,  0.022,
458.00,  0.022,
457.00,  0.022,
456.00,  0.022,
455.00,  0.022,
454.00,  0.022,
453.00,  0.023,
452.00,  0.022,
451.00,  0.023,
450.00,  0.023,
449.00,  0.023,
448.00,  0.023,
447.00,  0.023,
446.00,  0.023,
445.00,  0.024,
444.00,  0.024,
443.00,  0.024,
442.00,  0.024,
441.00,  0.024,
440.00,  0.023,
439.00,  0.023,
438.00,  0.024,
437.00,  0.024,
436.00,  0.024,
435.00,  0.024,
434.00,  0.024,
433.00,  0.024,
432.00,  0.024,
431.00,  0.024,
430.00,  0.025,
429.00,  0.025,
428.00,  0.025,
427.00,  0.025,
426.00,  0.025,
425.00,  0.025,
424.00,  0.025,
423.00,  0.025,
422.00,  0.031,
421.00,  0.030,
420.00,  0.031,
419.00,  0.030,
418.00,  0.031,
417.00,  0.031,
416.00,  0.031,
415.00,  0.032,
414.00,  0.031,
413.00,  0.031,
412.00,  0.032,
411.00,  0.032,
410.00,  0.032,
409.00,  0.031,
408.00,  0.032,
407.00,  0.032,
406.00,  0.033,
405.00,  0.033,
404.00,  0.032,
403.00,  0.033,
402.00,  0.033,
401.00,  0.033,
400.00,  0.033,
399.00,  0.034,
398.00,  0.034,
397.00,  0.034,
396.00,  0.034,
395.00,  0.034,
394.00,  0.034,
393.00,  0.034,
392.00,  0.034,
391.00,  0.035,
390.00,  0.035,
389.00,  0.035,
388.00,  0.035,
387.00,  0.035,
386.00,  0.036,
385.00,  0.035,
384.00,  0.036,
383.00,  0.035,
382.00,  0.036,
381.00,  0.036,
380.00,  0.036,
379.00,  0.036,
378.00,  0.037,
377.00,  0.036,
376.00,  0.036,
375.00,  0.037,
374.00,  0.037,
373.00,  0.037,
372.00,  0.037,
371.00,  0.037,
370.00,  0.038,
369.00,  0.038,
368.00,  0.038,
367.00,  0.039,
366.00,  0.038,
365.00,  0.038,
364.00,  0.039,
363.00,  0.039,
362.00,  0.039,
361.00,  0.040,
360.00,  0.039,
359.00,  0.040,
358.00,  0.040,
357.00,  0.041,
356.00,  0.041,
355.00,  0.041,
354.00,  0.042,
353.00,  0.043,
352.00,  0.043,
351.00,  0.043,
350.00,  0.043,
349.00,  0.043,
348.00,  0.044,
347.00,  0.044,
346.00,  0.045,
345.00,  0.045,
344.00,  0.045,
343.00,  0.045,
342.00,  0.046,
341.00,  0.046,
340.00,  0.047,
339.00,  0.047,
338.00,  0.047,
337.00,  0.048,
336.00,  0.049,
335.00,  0.050,
334.00,  0.051,
333.00,  0.051,
332.00,  0.051,
331.00,  0.052,
330.00,  0.052,
329.00,  0.052,
328.00,  0.053,
327.00,  0.054,
326.00,  0.054,
325.00,  0.055,
324.00,  0.056,
323.00,  0.056,
322.00,  0.057,
321.00,  0.058,
320.00,  0.059,
319.00,  0.060,
318.00,  0.061,
317.00,  0.062,
316.00,  0.064,
315.00,  0.065,
314.00,  0.067,
313.00,  0.068,
312.00,  0.071,
311.00,  0.073,
310.00,  0.076,
309.00,  0.080,
308.00,  0.084,
307.00,  0.088,
306.00,  0.092,
305.00,  0.095,
304.00,  0.099,
303.00,  0.101,
302.00,  0.105,
301.00,  0.109,
300.00,  0.112,
299.00,  0.117,
298.00,  0.121,
297.00,  0.127,
296.00,  0.132,
295.00,  0.139,
294.00,  0.148,
293.00,  0.158,
292.00,  0.175,
291.00,  0.202,
290.00,  0.244,
289.00,  0.315,
288.00,  0.443,
287.00,  0.650,
286.00,  0.978,
285.00,  1.514,
284.00,  2.445,
283.00,  9.999,
282.00,  9.999,
281.00,  9.999,
280.00,  9.999,
279.00,  9.999,
278.00,  9.999,
277.00,  9.999,
276.00,  9.999,
275.00,  9.999,
274.00,  9.999,
273.00,  9.999,
272.00,  9.999,
271.00,  9.999,
270.00,  9.999,
269.00,  9.999,
268.00,  9.999,
267.00,  9.999,
266.00,  9.999,
265.00,  9.999,
264.00,  9.999,
263.00,  9.999,
262.00,  9.999,
261.00,  9.999,
260.00,  9.999,
259.00,  9.999,
258.00,  9.999,
257.00,  9.999,
256.00,  9.999,
255.00,  9.999,
254.00,  9.999,
253.00,  9.999,
252.00,  9.999,
251.00,  9.999,
250.00,  9.999,
249.00,  9.999,
248.00,  9.999,
247.00,  9.999,
246.00,  9.999,
245.00,  9.999,
244.00,  9.999,
243.00,  9.999,
242.00,  9.999,
241.00,  9.999,
240.00,  9.999,
239.00,  9.999,
238.00,  9.999,
237.00,  9.999,
236.00,  9.999,
235.00,  9.999,
234.00,  9.999,
233.00,  9.999,
232.00,  9.999,
231.00,  9.999,
230.00,  9.999,
229.00,  9.999,
228.00,  9.999,
227.00,  9.999,
226.00,  9.999,
225.00,  9.999,
224.00,  9.999,
223.00,  9.999,
222.00,  9.999,
221.00,  9.999,
220.00,  9.999,
219.00,  9.999,
218.00,  3.721,
217.00,  3.211,
216.00,  2.799,
215.00,  2.548,
214.00,  2.370,
213.00,  2.155,
212.00,  1.883,
211.00,  1.536,
210.00,  1.084,
209.00,  0.707,
208.00,  0.569,
207.00,  0.517,
206.00,  0.457,
205.00,  0.431,
204.00,  0.417,
203.00,  0.417,
202.00,  0.402,
201.00,  0.403,
200.00,  0.390,
